 #energy tdos sumdos updos dndos awdos
       -21.5685        39.1716         0.0000        24.9351       -14.2365        39.1716
       -21.5624        39.5199         0.0000        25.1709       -14.3489        39.5199
       -21.5563        39.6431         0.2400        25.2635       -14.3796        39.6431
       -21.5502        39.5391         0.4814        25.2113       -14.3279        39.5391
       -21.5441        39.2098         0.7228        25.0150       -14.1947        39.2098
       -21.5380        38.6606         0.9630        24.6782       -13.9824        38.6606
       -21.5319        37.9011         1.2004        24.2066       -13.6945        37.9011
       -21.5258        36.9438         1.4339        23.6079       -13.3359        36.9438
       -21.5197        35.8047         1.6622        22.8923       -12.9124        35.8047
       -21.5136        34.5021         1.8840        22.0713       -12.4309        34.5021
       -21.5075        33.0567         2.0984        21.1578       -11.8989        33.0567
       -21.5014        31.4906         2.3044        20.1661       -11.3246        31.4906
       -21.4953        29.8271         2.5013        19.1107       -10.7164        29.8271
       -21.4892        28.0898         2.6882        18.0069       -10.0828        28.0898
       -21.4831        26.3023         2.8649        16.8697        -9.4325        26.3023
       -21.4770        24.4876         3.0307        15.7139        -8.7737        24.4876
       -21.4709        22.6677         3.1856        14.5534        -8.1143        22.6677
       -21.4648        20.8630         3.3294        13.4015        -7.4615        20.8630
       -21.4587        19.0921         3.4622        12.2700        -6.8220        19.0921
       -21.4526        17.3715         3.5840        11.1698        -6.2017        17.3715
       -21.4465        15.7156         3.6952        10.1100        -5.6055        15.7156
       -21.4404        14.1361         3.7961         9.0984        -5.0377        14.1361
       -21.4343        12.6427         3.8871         8.1411        -4.5015        12.6427
       -21.4282        11.2423         3.9688         7.2428        -3.9994        11.2423
       -21.4221         9.9398         4.0416         6.4068        -3.5330         9.9398
       -21.4160         8.7380         4.1062         5.6348        -3.1032         8.7380
       -21.4099         7.6375         4.1632         4.9274        -2.7100         7.6375
       -21.4038         6.6374         4.2131         4.2842        -2.3532         6.6374
       -21.3977         5.7353         4.2566         3.7036        -2.0316         5.7353
       -21.3916         4.9274         4.2944         3.1834        -1.7440         4.9274
       -21.3855         4.2091         4.3269         2.7205        -1.4885         4.2091
       -21.3794         3.5749         4.3547         2.3117        -1.2632         3.5749
       -21.3733         3.0189         4.3785         1.9530        -1.0659         3.0189
       -21.3672         2.5348         4.3986         1.6406        -0.8942         2.5348
       -21.3611         2.1161         4.4155         1.3702        -0.7459         2.1161
       -21.3550         1.7565         4.4297         1.1379        -0.6187         1.7565
       -21.3489         1.4497         4.4415         0.9395        -0.5102         1.4497
       -21.3428         1.1896         4.4513         0.7713        -0.4183         1.1896
       -21.3367         0.9706         4.4593         0.6295        -0.3410         0.9706
       -21.3306         0.7873         4.4659         0.5109        -0.2764         0.7873
       -21.3245         0.6350         4.4713         0.4122        -0.2228         0.6350
       -21.3184         0.5093         4.4756         0.3307        -0.1785         0.5093
       -21.3123         0.4061         4.4791         0.2638        -0.1423         0.4061
       -21.3062         0.3219         4.4819         0.2093        -0.1127         0.3219
       -21.3001         0.2538         4.4841         0.1650        -0.0888         0.2538
       -21.2940         0.1989         4.4859         0.1294        -0.0695         0.1989
       -21.2879         0.1550         4.4873         0.1009        -0.0541         0.1550
       -21.2818         0.1201         4.4883         0.0782        -0.0419         0.1201
       -21.2757         0.0925         4.4892         0.0603        -0.0323         0.0925
       -21.2696         0.0709         4.4898         0.0462        -0.0247         0.0709
       -21.2635         0.0540         4.4903         0.0352        -0.0188         0.0540
       -21.2574         0.0409         4.4907         0.0266        -0.0142         0.0409
       -21.2513         0.0308         4.4910         0.0201        -0.0107         0.0308
       -21.2452         0.0230         4.4912         0.0150        -0.0080         0.0230
       -21.2391         0.0171         4.4914         0.0112        -0.0060         0.0171
       -21.2330         0.0127         4.4915         0.0083        -0.0044         0.0127
       -21.2269         0.0093         4.4916         0.0061        -0.0032         0.0093
       -21.2208         0.0068         4.4917         0.0045        -0.0024         0.0068
       -21.2147         0.0050         4.4917         0.0032        -0.0017         0.0050
       -21.2086         0.0036         4.4918         0.0023        -0.0012         0.0036
       -21.2025         0.0026         4.4918         0.0017        -0.0009         0.0026
       -21.1964         0.0018         4.4918         0.0012        -0.0006         0.0018
       -21.1903         0.0013         4.4918         0.0009        -0.0005         0.0013
       -21.1842         0.0009         4.4918         0.0006        -0.0003         0.0009
       -21.1781         0.0007         4.4918         0.0004        -0.0002         0.0007
       -21.1720         0.0005         4.4918         0.0003        -0.0002         0.0005
       -21.1659         0.0003         4.4918         0.0002        -0.0001         0.0003
       -21.1598         0.0002         4.4918         0.0001        -0.0001         0.0002
       -21.1537         0.0002         4.4918         0.0001        -0.0001         0.0002
       -21.1476         0.0001         4.4918         0.0001        -0.0000         0.0001
       -21.1415         0.0001         4.4918         0.0000        -0.0000         0.0001
       -21.1354         0.0000         4.4918         0.0000        -0.0000         0.0000
       -21.1293         0.0000         4.4918         0.0000        -0.0000         0.0000
       -21.1232         0.0000         4.4918         0.0000        -0.0000         0.0000
       -21.1171         0.0000         4.4918         0.0000        -0.0000         0.0000
       -21.1110         0.0000         4.4918         0.0000        -0.0000         0.0000
       -21.1049         0.0000         4.4918         0.0000        -0.0000         0.0000
       -21.0988         0.0000         4.4918         0.0000        -0.0000         0.0000
       -21.0927         0.0000         4.4918         0.0000        -0.0000         0.0000
       -21.0866         0.0000         4.4918         0.0000        -0.0000         0.0000
       -21.0805         0.0000         4.4918         0.0000        -0.0000         0.0000
       -21.0744         0.0000         4.4918         0.0000        -0.0000         0.0000
       -21.0683         0.0000         4.4918         0.0000        -0.0000         0.0000
       -21.0622         0.0000         4.4918         0.0000        -0.0000         0.0000
       -21.0561         0.0000         4.4918         0.0000        -0.0000         0.0000
       -21.0500         0.0000         4.4918         0.0000        -0.0000         0.0000
       -21.0439         0.0000         4.4918         0.0000        -0.0000         0.0000
       -21.0378         0.0000         4.4918         0.0000        -0.0000         0.0000
       -21.0317         0.0000         4.4918         0.0000        -0.0000         0.0000
       -21.0257         0.0000         4.4918         0.0000        -0.0000         0.0000
       -21.0196         0.0000         4.4918         0.0000        -0.0000         0.0000
       -21.0135         0.0000         4.4918         0.0000        -0.0000         0.0000
       -21.0074         0.0000         4.4918         0.0000        -0.0000         0.0000
       -21.0013         0.0000         4.4918         0.0000        -0.0000         0.0000
       -20.9952         0.0000         4.4918         0.0000        -0.0000         0.0000
       -20.9891         0.0000         4.4918         0.0000        -0.0000         0.0000
       -20.9830         0.0000         4.4918         0.0000        -0.0000         0.0000
       -20.9769         0.0000         4.4918         0.0000        -0.0000         0.0000
       -20.9708         0.0000         4.4918         0.0000        -0.0000         0.0000
       -20.9647         0.0000         4.4918         0.0000        -0.0000         0.0000
       -20.9586         0.0000         4.4918         0.0000        -0.0000         0.0000
       -20.9525         0.0000         4.4918         0.0000        -0.0000         0.0000
       -20.9464         0.0000         4.4918         0.0000        -0.0000         0.0000
       -20.9403         0.0001         4.4918         0.0000        -0.0000         0.0001
       -20.9342         0.0001         4.4918         0.0001        -0.0000         0.0001
       -20.9281         0.0001         4.4918         0.0001        -0.0001         0.0001
       -20.9220         0.0002         4.4918         0.0001        -0.0001         0.0002
       -20.9159         0.0003         4.4918         0.0002        -0.0001         0.0003
       -20.9098         0.0004         4.4918         0.0002        -0.0002         0.0004
       -20.9037         0.0006         4.4918         0.0004        -0.0002         0.0006
       -20.8976         0.0008         4.4919         0.0005        -0.0003         0.0008
       -20.8915         0.0012         4.4919         0.0007        -0.0005         0.0012
       -20.8854         0.0017         4.4919         0.0010        -0.0006         0.0017
       -20.8793         0.0024         4.4919         0.0014        -0.0009         0.0024
       -20.8732         0.0033         4.4919         0.0020        -0.0013         0.0033
       -20.8671         0.0046         4.4919         0.0028        -0.0018         0.0046
       -20.8610         0.0064         4.4919         0.0039        -0.0025         0.0064
       -20.8549         0.0088         4.4920         0.0054        -0.0034         0.0088
       -20.8488         0.0120         4.4920         0.0074        -0.0046         0.0120
       -20.8427         0.0164         4.4921         0.0101        -0.0063         0.0164
       -20.8366         0.0222         4.4922         0.0136        -0.0086         0.0222
       -20.8305         0.0299         4.4923         0.0184        -0.0115         0.0299
       -20.8244         0.0400         4.4924         0.0246        -0.0154         0.0400
       -20.8183         0.0532         4.4926         0.0328        -0.0205         0.0532
       -20.8122         0.0705         4.4929         0.0434        -0.0271         0.0705
       -20.8061         0.0928         4.4933         0.0572        -0.0356         0.0928
       -20.8000         0.1214         4.4938         0.0749        -0.0465         0.1214
       -20.7939         0.1580         4.4945         0.0975        -0.0605         0.1580
       -20.7878         0.2044         4.4953         0.1262        -0.0782         0.2044
       -20.7817         0.2629         4.4964         0.1624        -0.1005         0.2629
       -20.7756         0.3363         4.4978         0.2079        -0.1284         0.3363
       -20.7695         0.4277         4.4997         0.2645        -0.1632         0.4277
       -20.7634         0.5409         4.5020         0.3347        -0.2062         0.5409
       -20.7573         0.6800         4.5049         0.4210        -0.2590         0.6800
       -20.7512         0.8501         4.5087         0.5266        -0.3235         0.8501
       -20.7451         1.0567         4.5133         0.6550        -0.4017         1.0567
       -20.7390         1.3060         4.5192         0.8100        -0.4960         1.3060
       -20.7329         1.6048         4.5264         0.9959        -0.6090         1.6048
       -20.7268         1.9609         4.5352         1.2175        -0.7434         1.9609
       -20.7207         2.3822         4.5461         1.4799        -0.9023         2.3822
       -20.7146         2.8776         4.5594         1.7886        -1.0889         2.8776
       -20.7085         3.4561         4.5754         2.1494        -1.3067         3.4561
       -20.7024         4.1273         4.5947         2.5682        -1.5591         4.1273
       -20.6963         4.9007         4.6178         3.0511        -1.8496         4.9007
       -20.6902         5.7859         4.6454         3.6041        -2.1817         5.7859
       -20.6841         6.7920         4.6780         4.2331        -2.5589         6.7920
       -20.6780         7.9275         4.7163         4.9434        -2.9841         7.9275
       -20.6719         9.2002         4.7612         5.7400        -3.4602         9.2002
       -20.6658        10.6163         4.8134         6.6270        -3.9893        10.6163
       -20.6597        12.1805         4.8739         7.6073        -4.5732        12.1805
       -20.6536        13.8954         4.9434         8.6828        -5.2126        13.8954
       -20.6475        15.7615         5.0229         9.8538        -5.9076        15.7615
       -20.6414        17.7761         5.1133        11.1190        -6.6572        17.7761
       -20.6353        19.9340         5.2156        12.4749        -7.4591        19.9340
       -20.6292        22.2264         5.3306        13.9164        -8.3100        22.2264
       -20.6231        24.6410         5.4592        15.4358        -9.2052        24.6410
       -20.6170        27.1623         5.6021        17.0235       -10.1388        27.1623
       -20.6109        29.7707         5.7601        18.6673       -11.1034        29.7707
       -20.6048        32.4437         5.9337        20.3531       -12.0906        32.4437
       -20.5987        35.1550         6.1234        22.0645       -13.0905        35.1550
       -20.5926        37.8757         6.3295        23.7833       -14.0924        37.8757
       -20.5865        40.5743         6.5522        25.4897       -15.0846        40.5743
       -20.5804        43.2173         6.7915        27.1626       -16.0547        43.2173
       -20.5743        45.7701         7.0470        28.7802       -16.9898        45.7701
       -20.5682        48.1972         7.3184        30.3201       -17.8770        48.1972
       -20.5621        50.4636         7.6049        31.7602       -18.7034        50.4636
       -20.5560        52.5354         7.9058        33.0788       -19.4566        52.5354
       -20.5499        54.3804         8.2199        34.2556       -20.1248        54.3804
       -20.5438        55.9692         8.5459        35.2718       -20.6974        55.9692
       -20.5377        57.2760         8.8824        36.1109       -21.1650        57.2760
       -20.5316        58.2790         9.2278        36.7590       -21.5200        58.2790
       -20.5255        58.9615         9.5801        37.2052       -21.7563        58.9615
       -20.5194        59.3119         9.9377        37.4420       -21.8699        59.3119
       -20.5133        59.3241        10.2983        37.4652       -21.8589        59.3241
       -20.5072        58.9979        10.6601        37.2745       -21.7234        58.9979
       -20.5011        58.3389        11.0209        36.8731       -21.4658        58.3389
       -20.4950        57.3584        11.3787        36.2679       -21.0905        57.3584
       -20.4889        56.0727        11.7316        35.4690       -20.6037        56.0727
       -20.4828        54.5032        12.0775        34.4897       -20.0135        54.5032
       -20.4767        52.6755        12.4147        33.3461       -19.3294        52.6755
       -20.4706        50.6188        12.7415        32.0564       -18.5624        50.6188
       -20.4645        48.3649        13.0565        30.6406       -17.7243        48.3649
       -20.4584        45.9478        13.3584        29.1202       -16.8276        45.9478
       -20.4523        43.4026        13.6460        27.5173       -15.8853        43.4026
       -20.4462        40.7645        13.9184        25.8542       -14.9103        40.7645
       -20.4402        38.0683        14.1751        24.1529       -13.9154        38.0683
       -20.4341        35.3477        14.4155        22.4347       -12.9129        35.3477
       -20.4280        32.6342        14.6394        20.7199       -11.9144        32.6342
       -20.4219        29.9572        14.8467        19.0268       -10.9304        29.9572
       -20.4158        27.3429        15.0376        17.3723        -9.9706        27.3429
       -20.4097        24.8144        15.2123        15.7712        -9.0432        24.8144
       -20.4036        22.3912        15.3713        14.2358        -8.1554        22.3912
       -20.3975        20.0894        15.5153        12.7766        -7.3128        20.0894
       -20.3914        17.9213        15.6448        11.4014        -6.5199        17.9213
       -20.3853        15.8960        15.7608        10.1162        -5.7798        15.8960
       -20.3792        14.0191        15.8639         8.9246        -5.0945        14.0191
       -20.3731        12.2933        15.9551         7.8283        -4.4649        12.2933
       -20.3670        10.7184        16.0353         6.8275        -3.8908        10.7184
       -20.3609         9.2919        16.1055         5.9207        -3.3712         9.2919
       -20.3548         8.0093        16.1665         5.1050        -2.9043         8.0093
       -20.3487         6.8643        16.2193         4.3765        -2.4879         6.8643
       -20.3426         5.8495        16.2647         3.7305        -2.1190         5.8495
       -20.3365         4.9562        16.3034         3.1617        -1.7945         4.9562
       -20.3304         4.1753        16.3364         2.6643        -1.5110         4.1753
       -20.3243         3.4974        16.3642         2.2324        -1.2651         3.4974
       -20.3182         2.9129        16.3876         1.8598        -1.0531         2.9129
       -20.3121         2.4122        16.4072         1.5405        -0.8717         2.4122
       -20.3060         1.9861        16.4234         1.2687        -0.7174         1.9861
       -20.2999         1.6260        16.4368         1.0390        -0.5870         1.6260
       -20.2938         1.3235        16.4478         0.8459        -0.4776         1.3235
       -20.2877         1.0712        16.4568         0.6848        -0.3864         1.0712
       -20.2816         0.8620        16.4641         0.5512        -0.3108         0.8620
       -20.2755         0.6897        16.4700         0.4412        -0.2486         0.6897
       -20.2694         0.5487        16.4748         0.3511        -0.1977         0.5487
       -20.2633         0.4340        16.4785         0.2778        -0.1563         0.4340
       -20.2572         0.3414        16.4815         0.2185        -0.1229         0.3414
       -20.2511         0.2670        16.4839         0.1709        -0.0960         0.2670
       -20.2450         0.2076        16.4858         0.1329        -0.0747         0.2076
       -20.2389         0.1605        16.4872         0.1028        -0.0577         0.1605
