 #  energy  real  imag
  0.000000000000000E+000   1.211072      0.0000000E+00
  6.666666666666666E-004   1.211127      0.0000000E+00
  1.333333333333333E-003   1.211182      0.0000000E+00
  2.000000000000000E-003   1.211237      0.0000000E+00
  2.666666666666667E-003   1.211292      0.0000000E+00
  3.333333333333334E-003   1.211347      0.0000000E+00
  4.000000000000000E-003   1.211402      0.0000000E+00
  4.666666666666667E-003   1.211457      0.0000000E+00
  5.333333333333333E-003   1.211512      0.0000000E+00
  6.000000000000000E-003   1.211567      0.0000000E+00
  6.666666666666667E-003   1.211622      0.0000000E+00
  7.333333333333333E-003   1.211677      0.0000000E+00
  8.000000000000000E-003   1.211732      0.0000000E+00
  8.666666666666666E-003   1.211787      0.0000000E+00
  9.333333333333334E-003   1.211843      0.0000000E+00
  1.000000000000000E-002   1.211898      0.0000000E+00
  1.066666666666667E-002   1.211953      0.0000000E+00
  1.133333333333333E-002   1.212008      0.0000000E+00
  1.200000000000000E-002   1.212064      0.0000000E+00
  1.266666666666667E-002   1.212119      0.0000000E+00
  1.333333333333333E-002   1.212175      0.0000000E+00
  1.400000000000000E-002   1.212230      0.0000000E+00
  1.466666666666667E-002   1.212286      0.0000000E+00
  1.533333333333333E-002   1.212341      0.0000000E+00
  1.600000000000000E-002   1.212397      0.0000000E+00
  1.666666666666667E-002   1.212452      0.0000000E+00
  1.733333333333333E-002   1.212508      0.0000000E+00
  1.800000000000000E-002   1.212563      0.0000000E+00
  1.866666666666667E-002   1.212619      0.0000000E+00
  1.933333333333333E-002   1.212675      0.0000000E+00
  2.000000000000000E-002   1.212730      0.0000000E+00
  2.066666666666667E-002   1.212786      0.0000000E+00
  2.133333333333333E-002   1.212842      0.0000000E+00
  2.200000000000000E-002   1.212898      0.0000000E+00
  2.266666666666667E-002   1.212954      0.0000000E+00
  2.333333333333333E-002   1.213009      0.0000000E+00
  2.400000000000000E-002   1.213065      0.0000000E+00
  2.466666666666667E-002   1.213121      0.0000000E+00
  2.533333333333333E-002   1.213177      0.0000000E+00
  2.600000000000000E-002   1.213233      0.0000000E+00
  2.666666666666667E-002   1.213289      0.0000000E+00
  2.733333333333333E-002   1.213345      0.0000000E+00
  2.800000000000000E-002   1.213401      0.0000000E+00
  2.866666666666667E-002   1.213457      0.0000000E+00
  2.933333333333333E-002   1.213514      0.0000000E+00
  3.000000000000000E-002   1.213570      0.0000000E+00
  3.066666666666666E-002   1.213626      0.0000000E+00
  3.133333333333333E-002   1.213682      0.0000000E+00
  3.200000000000000E-002   1.213738      0.0000000E+00
  3.266666666666666E-002   1.213795      0.0000000E+00
  3.333333333333333E-002   1.213851      0.0000000E+00
  3.400000000000000E-002   1.213907      0.0000000E+00
  3.466666666666667E-002   1.213964      0.0000000E+00
  3.533333333333333E-002   1.214020      0.0000000E+00
  3.600000000000000E-002   1.214077      0.0000000E+00
  3.666666666666667E-002   1.214133      0.0000000E+00
  3.733333333333334E-002   1.214190      0.0000000E+00
  3.800000000000000E-002   1.214246      0.0000000E+00
  3.866666666666667E-002   1.214303      0.0000000E+00
  3.933333333333333E-002   1.214359      0.0000000E+00
  4.000000000000000E-002   1.214416      0.0000000E+00
  4.066666666666666E-002   1.214473      0.0000000E+00
  4.133333333333333E-002   1.214529      0.0000000E+00
  4.200000000000000E-002   1.214586      0.0000000E+00
  4.266666666666667E-002   1.214643      0.0000000E+00
  4.333333333333333E-002   1.214700      0.0000000E+00
  4.400000000000000E-002   1.214756      0.0000000E+00
  4.466666666666667E-002   1.214813      0.0000000E+00
  4.533333333333334E-002   1.214870      0.0000000E+00
  4.600000000000000E-002   1.214927      0.0000000E+00
  4.666666666666667E-002   1.214984      0.0000000E+00
  4.733333333333333E-002   1.215041      0.0000000E+00
  4.800000000000000E-002   1.215098      0.0000000E+00
  4.866666666666666E-002   1.215155      0.0000000E+00
  4.933333333333333E-002   1.215212      0.0000000E+00
  5.000000000000000E-002   1.215269      0.0000000E+00
  5.066666666666667E-002   1.215326      0.0000000E+00
  5.133333333333333E-002   1.215383      0.0000000E+00
  5.200000000000000E-002   1.215440      0.0000000E+00
  5.266666666666667E-002   1.215498      0.0000000E+00
  5.333333333333334E-002   1.215555      0.0000000E+00
  5.400000000000000E-002   1.215612      0.0000000E+00
  5.466666666666667E-002   1.215669      0.0000000E+00
  5.533333333333333E-002   1.215727      0.0000000E+00
  5.600000000000000E-002   1.215784      0.0000000E+00
  5.666666666666666E-002   1.215842      0.0000000E+00
  5.733333333333333E-002   1.215899      0.0000000E+00
  5.800000000000000E-002   1.215956      0.0000000E+00
  5.866666666666667E-002   1.216014      0.0000000E+00
  5.933333333333334E-002   1.216071      0.0000000E+00
  6.000000000000000E-002   1.216129      0.0000000E+00
  6.066666666666667E-002   1.216187      0.0000000E+00
  6.133333333333333E-002   1.216244      0.0000000E+00
  6.200000000000000E-002   1.216302      0.0000000E+00
  6.266666666666666E-002   1.216359      0.0000000E+00
  6.333333333333334E-002   1.216417      0.0000000E+00
  6.400000000000000E-002   1.216475      0.0000000E+00
  6.466666666666666E-002   1.216533      0.0000000E+00
  6.533333333333333E-002   1.216591      0.0000000E+00
  6.600000000000000E-002   1.216648      0.0000000E+00
  6.666666666666667E-002   1.216706      0.0000000E+00
  6.733333333333333E-002   1.216764      0.0000000E+00
  6.800000000000000E-002   1.216822      0.0000000E+00
  6.866666666666667E-002   1.216880      0.0000000E+00
  6.933333333333333E-002   1.216938      0.0000000E+00
  7.000000000000001E-002   1.216996      0.0000000E+00
  7.066666666666667E-002   1.217054      0.0000000E+00
  7.133333333333333E-002   1.217112      0.0000000E+00
  7.199999999999999E-002   1.217170      0.0000000E+00
  7.266666666666667E-002   1.217229      0.0000000E+00
  7.333333333333333E-002   1.217287      0.0000000E+00
  7.400000000000000E-002   1.217345      0.0000000E+00
  7.466666666666667E-002   1.217403      0.0000000E+00
  7.533333333333334E-002   1.217461      0.0000000E+00
  7.600000000000000E-002   1.217520      0.0000000E+00
  7.666666666666666E-002   1.217578      0.0000000E+00
  7.733333333333334E-002   1.217637      0.0000000E+00
  7.800000000000000E-002   1.217695      0.0000000E+00
  7.866666666666666E-002   1.217753      0.0000000E+00
  7.933333333333334E-002   1.217812      0.0000000E+00
  8.000000000000000E-002   1.217870      0.0000000E+00
  8.066666666666666E-002   1.217929      0.0000000E+00
  8.133333333333333E-002   1.217988      0.0000000E+00
  8.200000000000000E-002   1.218046      0.0000000E+00
  8.266666666666667E-002   1.218105      0.0000000E+00
  8.333333333333333E-002   1.218163      0.0000000E+00
  8.400000000000001E-002   1.218222      0.0000000E+00
  8.466666666666667E-002   1.218281      0.0000000E+00
  8.533333333333333E-002   1.218340      0.0000000E+00
  8.599999999999999E-002   1.218398      0.0000000E+00
  8.666666666666667E-002   1.218457      0.0000000E+00
  8.733333333333333E-002   1.218516      0.0000000E+00
  8.799999999999999E-002   1.218575      0.0000000E+00
  8.866666666666667E-002   1.218634      0.0000000E+00
  8.933333333333333E-002   1.218693      0.0000000E+00
  9.000000000000000E-002   1.218752      0.0000000E+00
  9.066666666666667E-002   1.218811      0.0000000E+00
  9.133333333333334E-002   1.218870      0.0000000E+00
  9.200000000000000E-002   1.218929      0.0000000E+00
  9.266666666666666E-002   1.218988      0.0000000E+00
  9.333333333333334E-002   1.219047      0.0000000E+00
  9.400000000000000E-002   1.219107      0.0000000E+00
  9.466666666666666E-002   1.219166      0.0000000E+00
  9.533333333333334E-002   1.219225      0.0000000E+00
  9.600000000000000E-002   1.219284      0.0000000E+00
  9.666666666666666E-002   1.219344      0.0000000E+00
  9.733333333333333E-002   1.219403      0.0000000E+00
  9.800000000000000E-002   1.219463      0.0000000E+00
  9.866666666666667E-002   1.219522      0.0000000E+00
  9.933333333333333E-002   1.219581      0.0000000E+00
  0.100000000000000        1.219641      0.0000000E+00
  0.100666666666667        1.219700      0.0000000E+00
  0.101333333333333        1.219760      0.0000000E+00
  0.102000000000000        1.219820      0.0000000E+00
  0.102666666666667        1.219879      0.0000000E+00
  0.103333333333333        1.219939      0.0000000E+00
  0.104000000000000        1.219999      0.0000000E+00
  0.104666666666667        1.220058      0.0000000E+00
  0.105333333333333        1.220118      0.0000000E+00
  0.106000000000000        1.220178      0.0000000E+00
  0.106666666666667        1.220238      0.0000000E+00
  0.107333333333333        1.220297      0.0000000E+00
  0.108000000000000        1.220357      0.0000000E+00
  0.108666666666667        1.220417      0.0000000E+00
  0.109333333333333        1.220477      0.0000000E+00
  0.110000000000000        1.220537      0.0000000E+00
  0.110666666666667        1.220597      0.0000000E+00
  0.111333333333333        1.220657      0.0000000E+00
  0.112000000000000        1.220717      0.0000000E+00
  0.112666666666667        1.220778      0.0000000E+00
  0.113333333333333        1.220838      0.0000000E+00
  0.114000000000000        1.220898      0.0000000E+00
  0.114666666666667        1.220958      0.0000000E+00
  0.115333333333333        1.221018      0.0000000E+00
  0.116000000000000        1.221079      0.0000000E+00
  0.116666666666667        1.221139      0.0000000E+00
  0.117333333333333        1.221199      0.0000000E+00
  0.118000000000000        1.221260      0.0000000E+00
  0.118666666666667        1.221320      0.0000000E+00
  0.119333333333333        1.221381      0.0000000E+00
  0.120000000000000        1.221441      0.0000000E+00
  0.120666666666667        1.221502      0.0000000E+00
  0.121333333333333        1.221562      0.0000000E+00
  0.122000000000000        1.221623      0.0000000E+00
  0.122666666666667        1.221684      0.0000000E+00
  0.123333333333333        1.221744      0.0000000E+00
  0.124000000000000        1.221805      0.0000000E+00
  0.124666666666667        1.221866      0.0000000E+00
  0.125333333333333        1.221926      0.0000000E+00
  0.126000000000000        1.221987      0.0000000E+00
  0.126666666666667        1.222048      0.0000000E+00
  0.127333333333333        1.222109      0.0000000E+00
  0.128000000000000        1.222170      0.0000000E+00
  0.128666666666667        1.222231      0.0000000E+00
  0.129333333333333        1.222292      0.0000000E+00
  0.130000000000000        1.222353      0.0000000E+00
  0.130666666666667        1.222414      0.0000000E+00
  0.131333333333333        1.222475      0.0000000E+00
  0.132000000000000        1.222536      0.0000000E+00
  0.132666666666667        1.222597      0.0000000E+00
  0.133333333333333        1.222658      0.0000000E+00
  0.134000000000000        1.222720      0.0000000E+00
  0.134666666666667        1.222781      0.0000000E+00
  0.135333333333333        1.222842      0.0000000E+00
  0.136000000000000        1.222903      0.0000000E+00
  0.136666666666667        1.222965      0.0000000E+00
  0.137333333333333        1.223026      0.0000000E+00
  0.138000000000000        1.223088      0.0000000E+00
  0.138666666666667        1.223149      0.0000000E+00
  0.139333333333333        1.223211      0.0000000E+00
  0.140000000000000        1.223272      0.0000000E+00
  0.140666666666667        1.223334      0.0000000E+00
  0.141333333333333        1.223395      0.0000000E+00
  0.142000000000000        1.223457      0.0000000E+00
  0.142666666666667        1.223519      0.0000000E+00
  0.143333333333333        1.223580      0.0000000E+00
  0.144000000000000        1.223642      0.0000000E+00
  0.144666666666667        1.223704      0.0000000E+00
  0.145333333333333        1.223766      0.0000000E+00
  0.146000000000000        1.223827      0.0000000E+00
  0.146666666666667        1.223889      0.0000000E+00
  0.147333333333333        1.223951      0.0000000E+00
  0.148000000000000        1.224013      0.0000000E+00
  0.148666666666667        1.224075      0.0000000E+00
  0.149333333333333        1.224137      0.0000000E+00
  0.150000000000000        1.224199      0.0000000E+00
  0.150666666666667        1.224261      0.0000000E+00
  0.151333333333333        1.224324      0.0000000E+00
  0.152000000000000        1.224386      0.0000000E+00
  0.152666666666667        1.224448      0.0000000E+00
  0.153333333333333        1.224510      0.0000000E+00
  0.154000000000000        1.224572      0.0000000E+00
  0.154666666666667        1.224635      0.0000000E+00
  0.155333333333333        1.224697      0.0000000E+00
  0.156000000000000        1.224759      0.0000000E+00
  0.156666666666667        1.224822      0.0000000E+00
  0.157333333333333        1.224884      0.0000000E+00
  0.158000000000000        1.224947      0.0000000E+00
  0.158666666666667        1.225009      0.0000000E+00
  0.159333333333333        1.225072      0.0000000E+00
  0.160000000000000        1.225134      0.0000000E+00
  0.160666666666667        1.225197      0.0000000E+00
  0.161333333333333        1.225260      0.0000000E+00
  0.162000000000000        1.225322      0.0000000E+00
  0.162666666666667        1.225385      0.0000000E+00
  0.163333333333333        1.225448      0.0000000E+00
  0.164000000000000        1.225511      0.0000000E+00
  0.164666666666667        1.225574      0.0000000E+00
  0.165333333333333        1.225637      0.0000000E+00
  0.166000000000000        1.225699      0.0000000E+00
  0.166666666666667        1.225762      0.0000000E+00
  0.167333333333333        1.225825      0.0000000E+00
  0.168000000000000        1.225888      0.0000000E+00
  0.168666666666667        1.225952      0.0000000E+00
  0.169333333333333        1.226015      0.0000000E+00
  0.170000000000000        1.226078      0.0000000E+00
  0.170666666666667        1.226141      0.0000000E+00
  0.171333333333333        1.226204      0.0000000E+00
  0.172000000000000        1.226267      0.0000000E+00
  0.172666666666667        1.226331      0.0000000E+00
  0.173333333333333        1.226394      0.0000000E+00
  0.174000000000000        1.226457      0.0000000E+00
  0.174666666666667        1.226521      0.0000000E+00
  0.175333333333333        1.226584      0.0000000E+00
  0.176000000000000        1.226648      0.0000000E+00
  0.176666666666667        1.226711      0.0000000E+00
  0.177333333333333        1.226775      0.0000000E+00
  0.178000000000000        1.226838      0.0000000E+00
  0.178666666666667        1.226902      0.0000000E+00
  0.179333333333333        1.226965      0.0000000E+00
  0.180000000000000        1.227029      0.0000000E+00
  0.180666666666667        1.227093      0.0000000E+00
  0.181333333333333        1.227157      0.0000000E+00
  0.182000000000000        1.227220      0.0000000E+00
  0.182666666666667        1.227284      0.0000000E+00
  0.183333333333333        1.227348      0.0000000E+00
  0.184000000000000        1.227412      0.0000000E+00
  0.184666666666667        1.227476      0.0000000E+00
  0.185333333333333        1.227540      0.0000000E+00
  0.186000000000000        1.227604      0.0000000E+00
  0.186666666666667        1.227668      0.0000000E+00
  0.187333333333333        1.227732      0.0000000E+00
  0.188000000000000        1.227796      0.0000000E+00
  0.188666666666667        1.227860      0.0000000E+00
  0.189333333333333        1.227925      0.0000000E+00
  0.190000000000000        1.227989      0.0000000E+00
  0.190666666666667        1.228053      0.0000000E+00
  0.191333333333333        1.228117      0.0000000E+00
  0.192000000000000        1.228182      0.0000000E+00
  0.192666666666667        1.228246      0.0000000E+00
  0.193333333333333        1.228311      0.0000000E+00
  0.194000000000000        1.228375      0.0000000E+00
  0.194666666666667        1.228440      0.0000000E+00
  0.195333333333333        1.228504      0.0000000E+00
  0.196000000000000        1.228569      0.0000000E+00
  0.196666666666667        1.228633      0.0000000E+00
  0.197333333333333        1.228698      0.0000000E+00
  0.198000000000000        1.228763      0.0000000E+00
  0.198666666666667        1.228827      0.0000000E+00
  0.199333333333333        1.228892      0.0000000E+00
  0.200000000000000        1.228957      0.0000000E+00
  0.200666666666667        1.229022      0.0000000E+00
  0.201333333333333        1.229087      0.0000000E+00
  0.202000000000000        1.229151      0.0000000E+00
  0.202666666666667        1.229216      0.0000000E+00
  0.203333333333333        1.229281      0.0000000E+00
  0.204000000000000        1.229347      0.0000000E+00
  0.204666666666667        1.229411      0.0000000E+00
  0.205333333333333        1.229477      0.0000000E+00
  0.206000000000000        1.229542      0.0000000E+00
  0.206666666666667        1.229607      0.0000000E+00
  0.207333333333333        1.229672      0.0000000E+00
  0.208000000000000        1.229737      0.0000000E+00
  0.208666666666667        1.229803      0.0000000E+00
  0.209333333333333        1.229868      0.0000000E+00
  0.210000000000000        1.229933      0.0000000E+00
  0.210666666666667        1.229999      0.0000000E+00
  0.211333333333333        1.230064      0.0000000E+00
  0.212000000000000        1.230130      0.0000000E+00
  0.212666666666667        1.230195      0.0000000E+00
  0.213333333333333        1.230261      0.0000000E+00
  0.214000000000000        1.230327      0.0000000E+00
  0.214666666666667        1.230392      0.0000000E+00
  0.215333333333333        1.230458      0.0000000E+00
  0.216000000000000        1.230523      0.0000000E+00
  0.216666666666667        1.230589      0.0000000E+00
  0.217333333333333        1.230655      0.0000000E+00
  0.218000000000000        1.230721      0.0000000E+00
  0.218666666666667        1.230787      0.0000000E+00
  0.219333333333333        1.230853      0.0000000E+00
  0.220000000000000        1.230919      0.0000000E+00
  0.220666666666667        1.230985      0.0000000E+00
  0.221333333333333        1.231051      0.0000000E+00
  0.222000000000000        1.231117      0.0000000E+00
  0.222666666666667        1.231183      0.0000000E+00
  0.223333333333333        1.231249      0.0000000E+00
  0.224000000000000        1.231315      0.0000000E+00
  0.224666666666667        1.231381      0.0000000E+00
  0.225333333333333        1.231448      0.0000000E+00
  0.226000000000000        1.231514      0.0000000E+00
  0.226666666666667        1.231580      0.0000000E+00
  0.227333333333333        1.231647      0.0000000E+00
  0.228000000000000        1.231713      0.0000000E+00
  0.228666666666667        1.231780      0.0000000E+00
  0.229333333333333        1.231846      0.0000000E+00
  0.230000000000000        1.231913      0.0000000E+00
  0.230666666666667        1.231979      0.0000000E+00
  0.231333333333333        1.232046      0.0000000E+00
  0.232000000000000        1.232112      0.0000000E+00
  0.232666666666667        1.232179      0.0000000E+00
  0.233333333333333        1.232246      0.0000000E+00
  0.234000000000000        1.232313      0.0000000E+00
  0.234666666666667        1.232379      0.0000000E+00
  0.235333333333333        1.232446      0.0000000E+00
  0.236000000000000        1.232513      0.0000000E+00
  0.236666666666667        1.232580      0.0000000E+00
  0.237333333333333        1.232647      0.0000000E+00
  0.238000000000000        1.232714      0.0000000E+00
  0.238666666666667        1.232781      0.0000000E+00
  0.239333333333333        1.232848      0.0000000E+00
  0.240000000000000        1.232915      0.0000000E+00
  0.240666666666667        1.232983      0.0000000E+00
  0.241333333333333        1.233050      0.0000000E+00
