 #  energy  real  imag
  0.000000000000000E+000   1.211438      0.0000000E+00
  6.666666666666666E-004   1.211492      0.0000000E+00
  1.333333333333333E-003   1.211547      0.0000000E+00
  2.000000000000000E-003   1.211601      0.0000000E+00
  2.666666666666667E-003   1.211656      0.0000000E+00
  3.333333333333334E-003   1.211711      0.0000000E+00
  4.000000000000000E-003   1.211765      0.0000000E+00
  4.666666666666667E-003   1.211820      0.0000000E+00
  5.333333333333333E-003   1.211875      0.0000000E+00
  6.000000000000000E-003   1.211930      0.0000000E+00
  6.666666666666667E-003   1.211985      0.0000000E+00
  7.333333333333333E-003   1.212039      0.0000000E+00
  8.000000000000000E-003   1.212094      0.0000000E+00
  8.666666666666666E-003   1.212149      0.0000000E+00
  9.333333333333334E-003   1.212204      0.0000000E+00
  1.000000000000000E-002   1.212259      0.0000000E+00
  1.066666666666667E-002   1.212314      0.0000000E+00
  1.133333333333333E-002   1.212369      0.0000000E+00
  1.200000000000000E-002   1.212424      0.0000000E+00
  1.266666666666667E-002   1.212479      0.0000000E+00
  1.333333333333333E-002   1.212535      0.0000000E+00
  1.400000000000000E-002   1.212590      0.0000000E+00
  1.466666666666667E-002   1.212645      0.0000000E+00
  1.533333333333333E-002   1.212700      0.0000000E+00
  1.600000000000000E-002   1.212755      0.0000000E+00
  1.666666666666667E-002   1.212811      0.0000000E+00
  1.733333333333333E-002   1.212866      0.0000000E+00
  1.800000000000000E-002   1.212921      0.0000000E+00
  1.866666666666667E-002   1.212977      0.0000000E+00
  1.933333333333333E-002   1.213032      0.0000000E+00
  2.000000000000000E-002   1.213088      0.0000000E+00
  2.066666666666667E-002   1.213143      0.0000000E+00
  2.133333333333333E-002   1.213199      0.0000000E+00
  2.200000000000000E-002   1.213254      0.0000000E+00
  2.266666666666667E-002   1.213310      0.0000000E+00
  2.333333333333333E-002   1.213365      0.0000000E+00
  2.400000000000000E-002   1.213421      0.0000000E+00
  2.466666666666667E-002   1.213476      0.0000000E+00
  2.533333333333333E-002   1.213532      0.0000000E+00
  2.600000000000000E-002   1.213588      0.0000000E+00
  2.666666666666667E-002   1.213644      0.0000000E+00
  2.733333333333333E-002   1.213699      0.0000000E+00
  2.800000000000000E-002   1.213755      0.0000000E+00
  2.866666666666667E-002   1.213811      0.0000000E+00
  2.933333333333333E-002   1.213867      0.0000000E+00
  3.000000000000000E-002   1.213923      0.0000000E+00
  3.066666666666666E-002   1.213979      0.0000000E+00
  3.133333333333333E-002   1.214034      0.0000000E+00
  3.200000000000000E-002   1.214090      0.0000000E+00
  3.266666666666666E-002   1.214146      0.0000000E+00
  3.333333333333333E-002   1.214203      0.0000000E+00
  3.400000000000000E-002   1.214259      0.0000000E+00
  3.466666666666667E-002   1.214315      0.0000000E+00
  3.533333333333333E-002   1.214371      0.0000000E+00
  3.600000000000000E-002   1.214427      0.0000000E+00
  3.666666666666667E-002   1.214483      0.0000000E+00
  3.733333333333334E-002   1.214539      0.0000000E+00
  3.800000000000000E-002   1.214596      0.0000000E+00
  3.866666666666667E-002   1.214652      0.0000000E+00
  3.933333333333333E-002   1.214708      0.0000000E+00
  4.000000000000000E-002   1.214764      0.0000000E+00
  4.066666666666666E-002   1.214821      0.0000000E+00
  4.133333333333333E-002   1.214877      0.0000000E+00
  4.200000000000000E-002   1.214934      0.0000000E+00
  4.266666666666667E-002   1.214990      0.0000000E+00
  4.333333333333333E-002   1.215047      0.0000000E+00
  4.400000000000000E-002   1.215103      0.0000000E+00
  4.466666666666667E-002   1.215160      0.0000000E+00
  4.533333333333334E-002   1.215216      0.0000000E+00
  4.600000000000000E-002   1.215273      0.0000000E+00
  4.666666666666667E-002   1.215329      0.0000000E+00
  4.733333333333333E-002   1.215386      0.0000000E+00
  4.800000000000000E-002   1.215443      0.0000000E+00
  4.866666666666666E-002   1.215500      0.0000000E+00
  4.933333333333333E-002   1.215556      0.0000000E+00
  5.000000000000000E-002   1.215613      0.0000000E+00
  5.066666666666667E-002   1.215670      0.0000000E+00
  5.133333333333333E-002   1.215727      0.0000000E+00
  5.200000000000000E-002   1.215784      0.0000000E+00
  5.266666666666667E-002   1.215841      0.0000000E+00
  5.333333333333334E-002   1.215897      0.0000000E+00
  5.400000000000000E-002   1.215954      0.0000000E+00
  5.466666666666667E-002   1.216012      0.0000000E+00
  5.533333333333333E-002   1.216069      0.0000000E+00
  5.600000000000000E-002   1.216126      0.0000000E+00
  5.666666666666666E-002   1.216183      0.0000000E+00
  5.733333333333333E-002   1.216240      0.0000000E+00
  5.800000000000000E-002   1.216297      0.0000000E+00
  5.866666666666667E-002   1.216354      0.0000000E+00
  5.933333333333334E-002   1.216411      0.0000000E+00
  6.000000000000000E-002   1.216469      0.0000000E+00
  6.066666666666667E-002   1.216526      0.0000000E+00
  6.133333333333333E-002   1.216583      0.0000000E+00
  6.200000000000000E-002   1.216641      0.0000000E+00
  6.266666666666666E-002   1.216698      0.0000000E+00
  6.333333333333334E-002   1.216755      0.0000000E+00
  6.400000000000000E-002   1.216813      0.0000000E+00
  6.466666666666666E-002   1.216870      0.0000000E+00
  6.533333333333333E-002   1.216928      0.0000000E+00
  6.600000000000000E-002   1.216985      0.0000000E+00
  6.666666666666667E-002   1.217043      0.0000000E+00
  6.733333333333333E-002   1.217101      0.0000000E+00
  6.800000000000000E-002   1.217158      0.0000000E+00
  6.866666666666667E-002   1.217216      0.0000000E+00
  6.933333333333333E-002   1.217273      0.0000000E+00
  7.000000000000001E-002   1.217331      0.0000000E+00
  7.066666666666667E-002   1.217389      0.0000000E+00
  7.133333333333333E-002   1.217447      0.0000000E+00
  7.199999999999999E-002   1.217505      0.0000000E+00
  7.266666666666667E-002   1.217562      0.0000000E+00
  7.333333333333333E-002   1.217620      0.0000000E+00
  7.400000000000000E-002   1.217678      0.0000000E+00
  7.466666666666667E-002   1.217736      0.0000000E+00
  7.533333333333334E-002   1.217794      0.0000000E+00
  7.600000000000000E-002   1.217852      0.0000000E+00
  7.666666666666666E-002   1.217910      0.0000000E+00
  7.733333333333334E-002   1.217968      0.0000000E+00
  7.800000000000000E-002   1.218026      0.0000000E+00
  7.866666666666666E-002   1.218085      0.0000000E+00
  7.933333333333334E-002   1.218143      0.0000000E+00
  8.000000000000000E-002   1.218201      0.0000000E+00
  8.066666666666666E-002   1.218259      0.0000000E+00
  8.133333333333333E-002   1.218318      0.0000000E+00
  8.200000000000000E-002   1.218376      0.0000000E+00
  8.266666666666667E-002   1.218434      0.0000000E+00
  8.333333333333333E-002   1.218493      0.0000000E+00
  8.400000000000001E-002   1.218551      0.0000000E+00
  8.466666666666667E-002   1.218609      0.0000000E+00
  8.533333333333333E-002   1.218668      0.0000000E+00
  8.599999999999999E-002   1.218726      0.0000000E+00
  8.666666666666667E-002   1.218785      0.0000000E+00
  8.733333333333333E-002   1.218843      0.0000000E+00
  8.799999999999999E-002   1.218902      0.0000000E+00
  8.866666666666667E-002   1.218961      0.0000000E+00
  8.933333333333333E-002   1.219019      0.0000000E+00
  9.000000000000000E-002   1.219078      0.0000000E+00
  9.066666666666667E-002   1.219137      0.0000000E+00
  9.133333333333334E-002   1.219195      0.0000000E+00
  9.200000000000000E-002   1.219254      0.0000000E+00
  9.266666666666666E-002   1.219313      0.0000000E+00
  9.333333333333334E-002   1.219372      0.0000000E+00
  9.400000000000000E-002   1.219431      0.0000000E+00
  9.466666666666666E-002   1.219490      0.0000000E+00
  9.533333333333334E-002   1.219549      0.0000000E+00
  9.600000000000000E-002   1.219608      0.0000000E+00
  9.666666666666666E-002   1.219667      0.0000000E+00
  9.733333333333333E-002   1.219726      0.0000000E+00
  9.800000000000000E-002   1.219785      0.0000000E+00
  9.866666666666667E-002   1.219844      0.0000000E+00
  9.933333333333333E-002   1.219903      0.0000000E+00
  0.100000000000000        1.219962      0.0000000E+00
  0.100666666666667        1.220021      0.0000000E+00
  0.101333333333333        1.220081      0.0000000E+00
  0.102000000000000        1.220140      0.0000000E+00
  0.102666666666667        1.220199      0.0000000E+00
  0.103333333333333        1.220258      0.0000000E+00
  0.104000000000000        1.220318      0.0000000E+00
  0.104666666666667        1.220377      0.0000000E+00
  0.105333333333333        1.220437      0.0000000E+00
  0.106000000000000        1.220496      0.0000000E+00
  0.106666666666667        1.220556      0.0000000E+00
  0.107333333333333        1.220615      0.0000000E+00
  0.108000000000000        1.220675      0.0000000E+00
  0.108666666666667        1.220734      0.0000000E+00
  0.109333333333333        1.220794      0.0000000E+00
  0.110000000000000        1.220854      0.0000000E+00
  0.110666666666667        1.220913      0.0000000E+00
  0.111333333333333        1.220973      0.0000000E+00
  0.112000000000000        1.221033      0.0000000E+00
  0.112666666666667        1.221093      0.0000000E+00
  0.113333333333333        1.221153      0.0000000E+00
  0.114000000000000        1.221213      0.0000000E+00
  0.114666666666667        1.221272      0.0000000E+00
  0.115333333333333        1.221332      0.0000000E+00
  0.116000000000000        1.221392      0.0000000E+00
  0.116666666666667        1.221452      0.0000000E+00
  0.117333333333333        1.221512      0.0000000E+00
  0.118000000000000        1.221572      0.0000000E+00
  0.118666666666667        1.221632      0.0000000E+00
  0.119333333333333        1.221693      0.0000000E+00
  0.120000000000000        1.221753      0.0000000E+00
  0.120666666666667        1.221813      0.0000000E+00
  0.121333333333333        1.221873      0.0000000E+00
  0.122000000000000        1.221933      0.0000000E+00
  0.122666666666667        1.221994      0.0000000E+00
  0.123333333333333        1.222054      0.0000000E+00
  0.124000000000000        1.222115      0.0000000E+00
  0.124666666666667        1.222175      0.0000000E+00
  0.125333333333333        1.222235      0.0000000E+00
  0.126000000000000        1.222296      0.0000000E+00
  0.126666666666667        1.222356      0.0000000E+00
  0.127333333333333        1.222417      0.0000000E+00
  0.128000000000000        1.222478      0.0000000E+00
  0.128666666666667        1.222538      0.0000000E+00
  0.129333333333333        1.222599      0.0000000E+00
  0.130000000000000        1.222659      0.0000000E+00
  0.130666666666667        1.222720      0.0000000E+00
  0.131333333333333        1.222781      0.0000000E+00
  0.132000000000000        1.222842      0.0000000E+00
  0.132666666666667        1.222903      0.0000000E+00
  0.133333333333333        1.222963      0.0000000E+00
  0.134000000000000        1.223024      0.0000000E+00
  0.134666666666667        1.223085      0.0000000E+00
  0.135333333333333        1.223146      0.0000000E+00
  0.136000000000000        1.223207      0.0000000E+00
  0.136666666666667        1.223268      0.0000000E+00
  0.137333333333333        1.223329      0.0000000E+00
  0.138000000000000        1.223390      0.0000000E+00
  0.138666666666667        1.223451      0.0000000E+00
  0.139333333333333        1.223513      0.0000000E+00
  0.140000000000000        1.223574      0.0000000E+00
  0.140666666666667        1.223635      0.0000000E+00
  0.141333333333333        1.223696      0.0000000E+00
  0.142000000000000        1.223758      0.0000000E+00
  0.142666666666667        1.223819      0.0000000E+00
  0.143333333333333        1.223880      0.0000000E+00
  0.144000000000000        1.223942      0.0000000E+00
  0.144666666666667        1.224003      0.0000000E+00
  0.145333333333333        1.224065      0.0000000E+00
  0.146000000000000        1.224126      0.0000000E+00
  0.146666666666667        1.224188      0.0000000E+00
  0.147333333333333        1.224249      0.0000000E+00
  0.148000000000000        1.224311      0.0000000E+00
  0.148666666666667        1.224373      0.0000000E+00
  0.149333333333333        1.224434      0.0000000E+00
  0.150000000000000        1.224496      0.0000000E+00
  0.150666666666667        1.224558      0.0000000E+00
  0.151333333333333        1.224620      0.0000000E+00
  0.152000000000000        1.224681      0.0000000E+00
  0.152666666666667        1.224743      0.0000000E+00
  0.153333333333333        1.224805      0.0000000E+00
  0.154000000000000        1.224867      0.0000000E+00
  0.154666666666667        1.224929      0.0000000E+00
  0.155333333333333        1.224991      0.0000000E+00
  0.156000000000000        1.225053      0.0000000E+00
  0.156666666666667        1.225115      0.0000000E+00
  0.157333333333333        1.225177      0.0000000E+00
  0.158000000000000        1.225239      0.0000000E+00
  0.158666666666667        1.225302      0.0000000E+00
  0.159333333333333        1.225364      0.0000000E+00
  0.160000000000000        1.225426      0.0000000E+00
  0.160666666666667        1.225488      0.0000000E+00
  0.161333333333333        1.225551      0.0000000E+00
  0.162000000000000        1.225613      0.0000000E+00
  0.162666666666667        1.225675      0.0000000E+00
  0.163333333333333        1.225738      0.0000000E+00
  0.164000000000000        1.225800      0.0000000E+00
  0.164666666666667        1.225863      0.0000000E+00
  0.165333333333333        1.225925      0.0000000E+00
  0.166000000000000        1.225988      0.0000000E+00
  0.166666666666667        1.226050      0.0000000E+00
  0.167333333333333        1.226113      0.0000000E+00
  0.168000000000000        1.226176      0.0000000E+00
  0.168666666666667        1.226239      0.0000000E+00
  0.169333333333333        1.226301      0.0000000E+00
  0.170000000000000        1.226364      0.0000000E+00
  0.170666666666667        1.226427      0.0000000E+00
  0.171333333333333        1.226490      0.0000000E+00
  0.172000000000000        1.226553      0.0000000E+00
  0.172666666666667        1.226616      0.0000000E+00
  0.173333333333333        1.226679      0.0000000E+00
  0.174000000000000        1.226742      0.0000000E+00
  0.174666666666667        1.226805      0.0000000E+00
  0.175333333333333        1.226868      0.0000000E+00
  0.176000000000000        1.226931      0.0000000E+00
  0.176666666666667        1.226994      0.0000000E+00
  0.177333333333333        1.227057      0.0000000E+00
  0.178000000000000        1.227120      0.0000000E+00
  0.178666666666667        1.227184      0.0000000E+00
  0.179333333333333        1.227247      0.0000000E+00
  0.180000000000000        1.227310      0.0000000E+00
  0.180666666666667        1.227374      0.0000000E+00
  0.181333333333333        1.227437      0.0000000E+00
  0.182000000000000        1.227500      0.0000000E+00
  0.182666666666667        1.227564      0.0000000E+00
  0.183333333333333        1.227627      0.0000000E+00
  0.184000000000000        1.227691      0.0000000E+00
  0.184666666666667        1.227755      0.0000000E+00
  0.185333333333333        1.227818      0.0000000E+00
  0.186000000000000        1.227882      0.0000000E+00
  0.186666666666667        1.227946      0.0000000E+00
  0.187333333333333        1.228009      0.0000000E+00
  0.188000000000000        1.228073      0.0000000E+00
  0.188666666666667        1.228137      0.0000000E+00
  0.189333333333333        1.228201      0.0000000E+00
  0.190000000000000        1.228265      0.0000000E+00
  0.190666666666667        1.228328      0.0000000E+00
  0.191333333333333        1.228392      0.0000000E+00
  0.192000000000000        1.228456      0.0000000E+00
  0.192666666666667        1.228521      0.0000000E+00
  0.193333333333333        1.228585      0.0000000E+00
  0.194000000000000        1.228649      0.0000000E+00
  0.194666666666667        1.228713      0.0000000E+00
  0.195333333333333        1.228777      0.0000000E+00
  0.196000000000000        1.228841      0.0000000E+00
  0.196666666666667        1.228905      0.0000000E+00
  0.197333333333333        1.228970      0.0000000E+00
  0.198000000000000        1.229034      0.0000000E+00
  0.198666666666667        1.229098      0.0000000E+00
  0.199333333333333        1.229163      0.0000000E+00
  0.200000000000000        1.229227      0.0000000E+00
  0.200666666666667        1.229292      0.0000000E+00
  0.201333333333333        1.229356      0.0000000E+00
  0.202000000000000        1.229421      0.0000000E+00
  0.202666666666667        1.229485      0.0000000E+00
  0.203333333333333        1.229550      0.0000000E+00
  0.204000000000000        1.229615      0.0000000E+00
  0.204666666666667        1.229679      0.0000000E+00
  0.205333333333333        1.229744      0.0000000E+00
  0.206000000000000        1.229809      0.0000000E+00
  0.206666666666667        1.229874      0.0000000E+00
  0.207333333333333        1.229939      0.0000000E+00
  0.208000000000000        1.230003      0.0000000E+00
  0.208666666666667        1.230068      0.0000000E+00
  0.209333333333333        1.230133      0.0000000E+00
  0.210000000000000        1.230198      0.0000000E+00
  0.210666666666667        1.230263      0.0000000E+00
  0.211333333333333        1.230328      0.0000000E+00
  0.212000000000000        1.230394      0.0000000E+00
  0.212666666666667        1.230459      0.0000000E+00
  0.213333333333333        1.230524      0.0000000E+00
  0.214000000000000        1.230589      0.0000000E+00
  0.214666666666667        1.230654      0.0000000E+00
  0.215333333333333        1.230720      0.0000000E+00
  0.216000000000000        1.230785      0.0000000E+00
  0.216666666666667        1.230850      0.0000000E+00
  0.217333333333333        1.230916      0.0000000E+00
  0.218000000000000        1.230981      0.0000000E+00
  0.218666666666667        1.231047      0.0000000E+00
  0.219333333333333        1.231112      0.0000000E+00
  0.220000000000000        1.231178      0.0000000E+00
  0.220666666666667        1.231244      0.0000000E+00
  0.221333333333333        1.231309      0.0000000E+00
  0.222000000000000        1.231375      0.0000000E+00
  0.222666666666667        1.231441      0.0000000E+00
  0.223333333333333        1.231506      0.0000000E+00
  0.224000000000000        1.231572      0.0000000E+00
  0.224666666666667        1.231638      0.0000000E+00
  0.225333333333333        1.231704      0.0000000E+00
  0.226000000000000        1.231770      0.0000000E+00
  0.226666666666667        1.231836      0.0000000E+00
  0.227333333333333        1.231902      0.0000000E+00
  0.228000000000000        1.231968      0.0000000E+00
  0.228666666666667        1.232034      0.0000000E+00
  0.229333333333333        1.232100      0.0000000E+00
  0.230000000000000        1.232166      0.0000000E+00
  0.230666666666667        1.232233      0.0000000E+00
  0.231333333333333        1.232299      0.0000000E+00
  0.232000000000000        1.232365      0.0000000E+00
  0.232666666666667        1.232431      0.0000000E+00
  0.233333333333333        1.232498      0.0000000E+00
  0.234000000000000        1.232564      0.0000000E+00
  0.234666666666667        1.232631      0.0000000E+00
  0.235333333333333        1.232697      0.0000000E+00
  0.236000000000000        1.232764      0.0000000E+00
  0.236666666666667        1.232830      0.0000000E+00
  0.237333333333333        1.232897      0.0000000E+00
  0.238000000000000        1.232963      0.0000000E+00
  0.238666666666667        1.233030      0.0000000E+00
  0.239333333333333        1.233097      0.0000000E+00
  0.240000000000000        1.233163      0.0000000E+00
  0.240666666666667        1.233230      0.0000000E+00
  0.241333333333333        1.233297      0.0000000E+00
