 #  energy  real  imag
  0.000000000000000E+000   1.197729      0.0000000E+00
  6.666666666666666E-004   1.197778      0.0000000E+00
  1.333333333333333E-003   1.197828      0.0000000E+00
  2.000000000000000E-003   1.197877      0.0000000E+00
  2.666666666666667E-003   1.197927      0.0000000E+00
  3.333333333333334E-003   1.197976      0.0000000E+00
  4.000000000000000E-003   1.198026      0.0000000E+00
  4.666666666666667E-003   1.198076      0.0000000E+00
  5.333333333333333E-003   1.198125      0.0000000E+00
  6.000000000000000E-003   1.198175      0.0000000E+00
  6.666666666666667E-003   1.198225      0.0000000E+00
  7.333333333333333E-003   1.198274      0.0000000E+00
  8.000000000000000E-003   1.198324      0.0000000E+00
  8.666666666666666E-003   1.198374      0.0000000E+00
  9.333333333333334E-003   1.198424      0.0000000E+00
  1.000000000000000E-002   1.198473      0.0000000E+00
  1.066666666666667E-002   1.198523      0.0000000E+00
  1.133333333333333E-002   1.198573      0.0000000E+00
  1.200000000000000E-002   1.198623      0.0000000E+00
  1.266666666666667E-002   1.198673      0.0000000E+00
  1.333333333333333E-002   1.198723      0.0000000E+00
  1.400000000000000E-002   1.198773      0.0000000E+00
  1.466666666666667E-002   1.198823      0.0000000E+00
  1.533333333333333E-002   1.198873      0.0000000E+00
  1.600000000000000E-002   1.198923      0.0000000E+00
  1.666666666666667E-002   1.198973      0.0000000E+00
  1.733333333333333E-002   1.199023      0.0000000E+00
  1.800000000000000E-002   1.199073      0.0000000E+00
  1.866666666666667E-002   1.199123      0.0000000E+00
  1.933333333333333E-002   1.199173      0.0000000E+00
  2.000000000000000E-002   1.199223      0.0000000E+00
  2.066666666666667E-002   1.199274      0.0000000E+00
  2.133333333333333E-002   1.199324      0.0000000E+00
  2.200000000000000E-002   1.199374      0.0000000E+00
  2.266666666666667E-002   1.199424      0.0000000E+00
  2.333333333333333E-002   1.199475      0.0000000E+00
  2.400000000000000E-002   1.199525      0.0000000E+00
  2.466666666666667E-002   1.199575      0.0000000E+00
  2.533333333333333E-002   1.199626      0.0000000E+00
  2.600000000000000E-002   1.199676      0.0000000E+00
  2.666666666666667E-002   1.199727      0.0000000E+00
  2.733333333333333E-002   1.199777      0.0000000E+00
  2.800000000000000E-002   1.199828      0.0000000E+00
  2.866666666666667E-002   1.199878      0.0000000E+00
  2.933333333333333E-002   1.199929      0.0000000E+00
  3.000000000000000E-002   1.199979      0.0000000E+00
  3.066666666666666E-002   1.200030      0.0000000E+00
  3.133333333333333E-002   1.200081      0.0000000E+00
  3.200000000000000E-002   1.200131      0.0000000E+00
  3.266666666666666E-002   1.200182      0.0000000E+00
  3.333333333333333E-002   1.200233      0.0000000E+00
  3.400000000000000E-002   1.200283      0.0000000E+00
  3.466666666666667E-002   1.200334      0.0000000E+00
  3.533333333333333E-002   1.200385      0.0000000E+00
  3.600000000000000E-002   1.200436      0.0000000E+00
  3.666666666666667E-002   1.200487      0.0000000E+00
  3.733333333333334E-002   1.200537      0.0000000E+00
  3.800000000000000E-002   1.200588      0.0000000E+00
  3.866666666666667E-002   1.200639      0.0000000E+00
  3.933333333333333E-002   1.200690      0.0000000E+00
  4.000000000000000E-002   1.200741      0.0000000E+00
  4.066666666666666E-002   1.200792      0.0000000E+00
  4.133333333333333E-002   1.200843      0.0000000E+00
  4.200000000000000E-002   1.200894      0.0000000E+00
  4.266666666666667E-002   1.200945      0.0000000E+00
  4.333333333333333E-002   1.200997      0.0000000E+00
  4.400000000000000E-002   1.201048      0.0000000E+00
  4.466666666666667E-002   1.201099      0.0000000E+00
  4.533333333333334E-002   1.201150      0.0000000E+00
  4.600000000000000E-002   1.201201      0.0000000E+00
  4.666666666666667E-002   1.201252      0.0000000E+00
  4.733333333333333E-002   1.201304      0.0000000E+00
  4.800000000000000E-002   1.201355      0.0000000E+00
  4.866666666666666E-002   1.201406      0.0000000E+00
  4.933333333333333E-002   1.201458      0.0000000E+00
  5.000000000000000E-002   1.201509      0.0000000E+00
  5.066666666666667E-002   1.201560      0.0000000E+00
  5.133333333333333E-002   1.201612      0.0000000E+00
  5.200000000000000E-002   1.201663      0.0000000E+00
  5.266666666666667E-002   1.201715      0.0000000E+00
  5.333333333333334E-002   1.201766      0.0000000E+00
  5.400000000000000E-002   1.201818      0.0000000E+00
  5.466666666666667E-002   1.201869      0.0000000E+00
  5.533333333333333E-002   1.201921      0.0000000E+00
  5.600000000000000E-002   1.201973      0.0000000E+00
  5.666666666666666E-002   1.202024      0.0000000E+00
  5.733333333333333E-002   1.202076      0.0000000E+00
  5.800000000000000E-002   1.202128      0.0000000E+00
  5.866666666666667E-002   1.202179      0.0000000E+00
  5.933333333333334E-002   1.202231      0.0000000E+00
  6.000000000000000E-002   1.202283      0.0000000E+00
  6.066666666666667E-002   1.202335      0.0000000E+00
  6.133333333333333E-002   1.202386      0.0000000E+00
  6.200000000000000E-002   1.202438      0.0000000E+00
  6.266666666666666E-002   1.202490      0.0000000E+00
  6.333333333333334E-002   1.202542      0.0000000E+00
  6.400000000000000E-002   1.202594      0.0000000E+00
  6.466666666666666E-002   1.202646      0.0000000E+00
  6.533333333333333E-002   1.202698      0.0000000E+00
  6.600000000000000E-002   1.202750      0.0000000E+00
  6.666666666666667E-002   1.202802      0.0000000E+00
  6.733333333333333E-002   1.202854      0.0000000E+00
  6.800000000000000E-002   1.202906      0.0000000E+00
  6.866666666666667E-002   1.202959      0.0000000E+00
  6.933333333333333E-002   1.203011      0.0000000E+00
  7.000000000000001E-002   1.203063      0.0000000E+00
  7.066666666666667E-002   1.203115      0.0000000E+00
  7.133333333333333E-002   1.203167      0.0000000E+00
  7.199999999999999E-002   1.203220      0.0000000E+00
  7.266666666666667E-002   1.203272      0.0000000E+00
  7.333333333333333E-002   1.203324      0.0000000E+00
  7.400000000000000E-002   1.203377      0.0000000E+00
  7.466666666666667E-002   1.203429      0.0000000E+00
  7.533333333333334E-002   1.203481      0.0000000E+00
  7.600000000000000E-002   1.203534      0.0000000E+00
  7.666666666666666E-002   1.203586      0.0000000E+00
  7.733333333333334E-002   1.203639      0.0000000E+00
  7.800000000000000E-002   1.203691      0.0000000E+00
  7.866666666666666E-002   1.203744      0.0000000E+00
  7.933333333333334E-002   1.203797      0.0000000E+00
  8.000000000000000E-002   1.203849      0.0000000E+00
  8.066666666666666E-002   1.203902      0.0000000E+00
  8.133333333333333E-002   1.203954      0.0000000E+00
  8.200000000000000E-002   1.204007      0.0000000E+00
  8.266666666666667E-002   1.204060      0.0000000E+00
  8.333333333333333E-002   1.204113      0.0000000E+00
  8.400000000000001E-002   1.204165      0.0000000E+00
  8.466666666666667E-002   1.204218      0.0000000E+00
  8.533333333333333E-002   1.204271      0.0000000E+00
  8.599999999999999E-002   1.204324      0.0000000E+00
  8.666666666666667E-002   1.204377      0.0000000E+00
  8.733333333333333E-002   1.204430      0.0000000E+00
  8.799999999999999E-002   1.204483      0.0000000E+00
  8.866666666666667E-002   1.204536      0.0000000E+00
  8.933333333333333E-002   1.204589      0.0000000E+00
  9.000000000000000E-002   1.204642      0.0000000E+00
  9.066666666666667E-002   1.204695      0.0000000E+00
  9.133333333333334E-002   1.204748      0.0000000E+00
  9.200000000000000E-002   1.204801      0.0000000E+00
  9.266666666666666E-002   1.204854      0.0000000E+00
  9.333333333333334E-002   1.204907      0.0000000E+00
  9.400000000000000E-002   1.204960      0.0000000E+00
  9.466666666666666E-002   1.205014      0.0000000E+00
  9.533333333333334E-002   1.205067      0.0000000E+00
  9.600000000000000E-002   1.205120      0.0000000E+00
  9.666666666666666E-002   1.205173      0.0000000E+00
  9.733333333333333E-002   1.205227      0.0000000E+00
  9.800000000000000E-002   1.205280      0.0000000E+00
  9.866666666666667E-002   1.205334      0.0000000E+00
  9.933333333333333E-002   1.205387      0.0000000E+00
  0.100000000000000        1.205441      0.0000000E+00
  0.100666666666667        1.205494      0.0000000E+00
  0.101333333333333        1.205547      0.0000000E+00
  0.102000000000000        1.205601      0.0000000E+00
  0.102666666666667        1.205655      0.0000000E+00
  0.103333333333333        1.205708      0.0000000E+00
  0.104000000000000        1.205762      0.0000000E+00
  0.104666666666667        1.205815      0.0000000E+00
  0.105333333333333        1.205869      0.0000000E+00
  0.106000000000000        1.205923      0.0000000E+00
  0.106666666666667        1.205977      0.0000000E+00
  0.107333333333333        1.206030      0.0000000E+00
  0.108000000000000        1.206084      0.0000000E+00
  0.108666666666667        1.206138      0.0000000E+00
  0.109333333333333        1.206192      0.0000000E+00
  0.110000000000000        1.206246      0.0000000E+00
  0.110666666666667        1.206300      0.0000000E+00
  0.111333333333333        1.206354      0.0000000E+00
  0.112000000000000        1.206408      0.0000000E+00
  0.112666666666667        1.206462      0.0000000E+00
  0.113333333333333        1.206516      0.0000000E+00
  0.114000000000000        1.206570      0.0000000E+00
  0.114666666666667        1.206624      0.0000000E+00
  0.115333333333333        1.206678      0.0000000E+00
  0.116000000000000        1.206732      0.0000000E+00
  0.116666666666667        1.206786      0.0000000E+00
  0.117333333333333        1.206841      0.0000000E+00
  0.118000000000000        1.206895      0.0000000E+00
  0.118666666666667        1.206949      0.0000000E+00
  0.119333333333333        1.207003      0.0000000E+00
  0.120000000000000        1.207058      0.0000000E+00
  0.120666666666667        1.207112      0.0000000E+00
  0.121333333333333        1.207166      0.0000000E+00
  0.122000000000000        1.207221      0.0000000E+00
  0.122666666666667        1.207275      0.0000000E+00
  0.123333333333333        1.207330      0.0000000E+00
  0.124000000000000        1.207384      0.0000000E+00
  0.124666666666667        1.207439      0.0000000E+00
  0.125333333333333        1.207493      0.0000000E+00
  0.126000000000000        1.207548      0.0000000E+00
  0.126666666666667        1.207603      0.0000000E+00
  0.127333333333333        1.207657      0.0000000E+00
  0.128000000000000        1.207712      0.0000000E+00
  0.128666666666667        1.207767      0.0000000E+00
  0.129333333333333        1.207821      0.0000000E+00
  0.130000000000000        1.207876      0.0000000E+00
  0.130666666666667        1.207931      0.0000000E+00
  0.131333333333333        1.207986      0.0000000E+00
  0.132000000000000        1.208040      0.0000000E+00
  0.132666666666667        1.208095      0.0000000E+00
  0.133333333333333        1.208150      0.0000000E+00
  0.134000000000000        1.208205      0.0000000E+00
  0.134666666666667        1.208260      0.0000000E+00
  0.135333333333333        1.208315      0.0000000E+00
  0.136000000000000        1.208370      0.0000000E+00
  0.136666666666667        1.208425      0.0000000E+00
  0.137333333333333        1.208480      0.0000000E+00
  0.138000000000000        1.208536      0.0000000E+00
  0.138666666666667        1.208591      0.0000000E+00
  0.139333333333333        1.208646      0.0000000E+00
  0.140000000000000        1.208701      0.0000000E+00
  0.140666666666667        1.208756      0.0000000E+00
  0.141333333333333        1.208812      0.0000000E+00
  0.142000000000000        1.208867      0.0000000E+00
  0.142666666666667        1.208922      0.0000000E+00
  0.143333333333333        1.208978      0.0000000E+00
  0.144000000000000        1.209033      0.0000000E+00
  0.144666666666667        1.209089      0.0000000E+00
  0.145333333333333        1.209144      0.0000000E+00
  0.146000000000000        1.209199      0.0000000E+00
  0.146666666666667        1.209255      0.0000000E+00
  0.147333333333333        1.209311      0.0000000E+00
  0.148000000000000        1.209366      0.0000000E+00
  0.148666666666667        1.209422      0.0000000E+00
  0.149333333333333        1.209477      0.0000000E+00
  0.150000000000000        1.209533      0.0000000E+00
  0.150666666666667        1.209589      0.0000000E+00
  0.151333333333333        1.209644      0.0000000E+00
  0.152000000000000        1.209700      0.0000000E+00
  0.152666666666667        1.209756      0.0000000E+00
  0.153333333333333        1.209812      0.0000000E+00
  0.154000000000000        1.209868      0.0000000E+00
  0.154666666666667        1.209924      0.0000000E+00
  0.155333333333333        1.209980      0.0000000E+00
  0.156000000000000        1.210035      0.0000000E+00
  0.156666666666667        1.210091      0.0000000E+00
  0.157333333333333        1.210147      0.0000000E+00
  0.158000000000000        1.210204      0.0000000E+00
  0.158666666666667        1.210260      0.0000000E+00
  0.159333333333333        1.210316      0.0000000E+00
  0.160000000000000        1.210372      0.0000000E+00
  0.160666666666667        1.210428      0.0000000E+00
  0.161333333333333        1.210484      0.0000000E+00
  0.162000000000000        1.210540      0.0000000E+00
  0.162666666666667        1.210597      0.0000000E+00
  0.163333333333333        1.210653      0.0000000E+00
  0.164000000000000        1.210709      0.0000000E+00
  0.164666666666667        1.210766      0.0000000E+00
  0.165333333333333        1.210822      0.0000000E+00
  0.166000000000000        1.210878      0.0000000E+00
  0.166666666666667        1.210935      0.0000000E+00
  0.167333333333333        1.210991      0.0000000E+00
  0.168000000000000        1.211048      0.0000000E+00
  0.168666666666667        1.211104      0.0000000E+00
  0.169333333333333        1.211161      0.0000000E+00
  0.170000000000000        1.211217      0.0000000E+00
  0.170666666666667        1.211274      0.0000000E+00
  0.171333333333333        1.211331      0.0000000E+00
  0.172000000000000        1.211387      0.0000000E+00
  0.172666666666667        1.211444      0.0000000E+00
  0.173333333333333        1.211501      0.0000000E+00
  0.174000000000000        1.211558      0.0000000E+00
  0.174666666666667        1.211614      0.0000000E+00
  0.175333333333333        1.211671      0.0000000E+00
  0.176000000000000        1.211728      0.0000000E+00
  0.176666666666667        1.211785      0.0000000E+00
  0.177333333333333        1.211842      0.0000000E+00
  0.178000000000000        1.211899      0.0000000E+00
  0.178666666666667        1.211956      0.0000000E+00
  0.179333333333333        1.212013      0.0000000E+00
  0.180000000000000        1.212070      0.0000000E+00
  0.180666666666667        1.212127      0.0000000E+00
  0.181333333333333        1.212184      0.0000000E+00
  0.182000000000000        1.212242      0.0000000E+00
  0.182666666666667        1.212299      0.0000000E+00
  0.183333333333333        1.212356      0.0000000E+00
  0.184000000000000        1.212413      0.0000000E+00
  0.184666666666667        1.212471      0.0000000E+00
  0.185333333333333        1.212528      0.0000000E+00
  0.186000000000000        1.212585      0.0000000E+00
  0.186666666666667        1.212643      0.0000000E+00
  0.187333333333333        1.212700      0.0000000E+00
  0.188000000000000        1.212757      0.0000000E+00
  0.188666666666667        1.212815      0.0000000E+00
  0.189333333333333        1.212873      0.0000000E+00
  0.190000000000000        1.212930      0.0000000E+00
  0.190666666666667        1.212988      0.0000000E+00
  0.191333333333333        1.213045      0.0000000E+00
  0.192000000000000        1.213103      0.0000000E+00
  0.192666666666667        1.213161      0.0000000E+00
  0.193333333333333        1.213218      0.0000000E+00
  0.194000000000000        1.213276      0.0000000E+00
  0.194666666666667        1.213334      0.0000000E+00
  0.195333333333333        1.213392      0.0000000E+00
  0.196000000000000        1.213449      0.0000000E+00
  0.196666666666667        1.213507      0.0000000E+00
  0.197333333333333        1.213565      0.0000000E+00
  0.198000000000000        1.213623      0.0000000E+00
  0.198666666666667        1.213681      0.0000000E+00
  0.199333333333333        1.213739      0.0000000E+00
  0.200000000000000        1.213797      0.0000000E+00
  0.200666666666667        1.213855      0.0000000E+00
  0.201333333333333        1.213913      0.0000000E+00
  0.202000000000000        1.213971      0.0000000E+00
  0.202666666666667        1.214030      0.0000000E+00
  0.203333333333333        1.214088      0.0000000E+00
  0.204000000000000        1.214146      0.0000000E+00
  0.204666666666667        1.214204      0.0000000E+00
  0.205333333333333        1.214262      0.0000000E+00
  0.206000000000000        1.214321      0.0000000E+00
  0.206666666666667        1.214379      0.0000000E+00
  0.207333333333333        1.214438      0.0000000E+00
  0.208000000000000        1.214496      0.0000000E+00
  0.208666666666667        1.214554      0.0000000E+00
  0.209333333333333        1.214613      0.0000000E+00
  0.210000000000000        1.214671      0.0000000E+00
  0.210666666666667        1.214730      0.0000000E+00
  0.211333333333333        1.214789      0.0000000E+00
  0.212000000000000        1.214847      0.0000000E+00
  0.212666666666667        1.214906      0.0000000E+00
  0.213333333333333        1.214965      0.0000000E+00
  0.214000000000000        1.215023      0.0000000E+00
  0.214666666666667        1.215082      0.0000000E+00
  0.215333333333333        1.215141      0.0000000E+00
  0.216000000000000        1.215200      0.0000000E+00
  0.216666666666667        1.215258      0.0000000E+00
  0.217333333333333        1.215317      0.0000000E+00
  0.218000000000000        1.215376      0.0000000E+00
  0.218666666666667        1.215435      0.0000000E+00
  0.219333333333333        1.215494      0.0000000E+00
  0.220000000000000        1.215553      0.0000000E+00
  0.220666666666667        1.215612      0.0000000E+00
  0.221333333333333        1.215671      0.0000000E+00
  0.222000000000000        1.215730      0.0000000E+00
  0.222666666666667        1.215790      0.0000000E+00
  0.223333333333333        1.215849      0.0000000E+00
  0.224000000000000        1.215908      0.0000000E+00
  0.224666666666667        1.215967      0.0000000E+00
  0.225333333333333        1.216027      0.0000000E+00
  0.226000000000000        1.216086      0.0000000E+00
  0.226666666666667        1.216145      0.0000000E+00
  0.227333333333333        1.216205      0.0000000E+00
  0.228000000000000        1.216264      0.0000000E+00
  0.228666666666667        1.216323      0.0000000E+00
  0.229333333333333        1.216383      0.0000000E+00
  0.230000000000000        1.216442      0.0000000E+00
  0.230666666666667        1.216502      0.0000000E+00
  0.231333333333333        1.216562      0.0000000E+00
  0.232000000000000        1.216621      0.0000000E+00
  0.232666666666667        1.216681      0.0000000E+00
  0.233333333333333        1.216741      0.0000000E+00
  0.234000000000000        1.216800      0.0000000E+00
  0.234666666666667        1.216860      0.0000000E+00
  0.235333333333333        1.216920      0.0000000E+00
  0.236000000000000        1.216980      0.0000000E+00
  0.236666666666667        1.217040      0.0000000E+00
  0.237333333333333        1.217099      0.0000000E+00
  0.238000000000000        1.217159      0.0000000E+00
  0.238666666666667        1.217219      0.0000000E+00
  0.239333333333333        1.217279      0.0000000E+00
  0.240000000000000        1.217339      0.0000000E+00
  0.240666666666667        1.217399      0.0000000E+00
  0.241333333333333        1.217460      0.0000000E+00
